*TYPE		=  Raw
*CLASS		=  ASCII CLASS
*SAMPLE		=  powder
*COMMENT	=   
*FNAME		=  GraphiteAnode_SolventFree_12072023_Theta_2-Theta.asc
*DATE		=  07-Dec-23 18:54

*GROUP_COUNT	=  1
*GONIO		=  MiniFlex 300/600, 150
*ATTACHMENT	=  ASC-6
*ASC		=  0, 0, 0.000000, 0.000000
*FILTER		=  None
*C_MONOCHRO	=  Bent, 0.000000
*SLIT_NAME	=  0, IHS
*SLIT_NAME	=  1, DS
*SLIT_NAME	=  2, SS
*SLIT_NAME	=  3, RS
*COUNTER	=  SC-70, 0
*POS_FORMAT	=  0
*SCAN_AXIS	=  2theta/theta
*MEAS_MODE	=  Continuous Scanning
*TARGET		=  29
*XRAY_CHAR	=  K-ALPHA
*WAVE_LENGTH1	=  1.54059
*WAVE_LENGTH2	=  1.54441
*THICKNESS	=  0, 0.000000
*MU		=  0, 0.000000
*SCAN_MODE	=  2theta/theta
*SPEED_DIM	=  sec./step
*XUNIT		=  deg.
*YUNIT		=  counts
*SCALE_MODE	=  1
*REP_COUNT	=  0
*SE_COUNT	=  0
*STD_MATERIAL	=  Unknown, Unknown, 0.000000, 0.000000, 0.000000, 0.000000, 0.000000, 0.000000
*LATT_CONS	=  0, Unknown, Unknown, 0.000000, 0.000000, 0.000000, 0.000000, 0.000000, 0.000000
*SEC_COUNT	=  1
*TSPEC_SIZE	=  0
*EXTRA_SIZE	=  0
*MEMO		=   

*BEGIN
*GROUP		=  0
*START		=  20
*STOP		=  120
*STEP		=  0.01
*OFFSET		=  0.000000
*SPEED		=  1.2
*SLIT_SPEC	=  0, 10.0mm, 10, 0.000000
*SLIT_SPEC	=  1, 1.250deg, 1.25, 0.000000
*SLIT_SPEC	=  2, 1.250deg, 1.25, 0.000000
*SLIT_SPEC	=  3, 0.3mm, 0.3, 0.000000
*KV		=  40
*MA		=  15
*LOW		=  0.000000
*HIGH		=  0.000000
*CTEMPER	=  0, 0.000000
*CTEMPER	=  1, 0.000000
*CTEMPER	=  2, 0.000000
*PAREX		=  0, 0.000000
*PAREX		=  1, 0.000000
*PAREX		=  2, 0.000000
*PAREX		=  3, 0.000000
*PAREX		=  4, 0.000000
*PAREX		=  5, 0.000000
*PAREX		=  6, 0.000000
*PAREX		=  7, 0.000000
*PAREX		=  8, 0.000000
*PAREX		=  9, 0.000000
*PAREX		=  10, 0.000000
*PAREX		=  11, 0.000000
*PAREX		=  12, 0.000000
*PAREX		=  13, 0.000000
*PAREX		=  14, 0.000000
*PAREX		=  15, 0.000000
*FULL_SCALE	=  30022
*INDEX		=  0, 0, 0
*COUNT		=  10001
165, 187, 159, 160
153, 203, 168, 161
153, 167, 159, 175
170, 178, 170, 175
134, 143, 168, 150
167, 169, 149, 139
166, 139, 157, 137
147, 163, 150, 148
157, 137, 161, 144
132, 148, 158, 149
130, 139, 151, 144
159, 156, 135, 114
138, 164, 145, 141
145, 128, 144, 160
156, 144, 151, 138
129, 147, 133, 146
134, 150, 136, 161
139, 164, 147, 119
130, 117, 151, 145
133, 142, 145, 145
155, 144, 123, 140
130, 113, 127, 136
126, 132, 143, 140
138, 138, 122, 131
136, 118, 138, 120
154, 142, 130, 157
131, 123, 162, 152
144, 166, 122, 152
124, 135, 137, 145
155, 166, 120, 120
146, 145, 121, 142
141, 139, 109, 147
137, 134, 138, 122
137, 139, 118, 129
133, 148, 145, 128
153, 147, 129, 162
113, 148, 133, 127
124, 130, 116, 137
149, 135, 128, 140
158, 123, 138, 141
136, 148, 121, 135
148, 136, 127, 117
121, 138, 116, 119
147, 154, 101, 136
115, 120, 144, 137
137, 137, 135, 141
133, 141, 130, 137
139, 128, 160, 134
128, 138, 158, 148
133, 140, 124, 156
138, 140, 134, 153
140, 126, 127, 145
129, 135, 129, 159
160, 166, 149, 146
133, 144, 141, 136
151, 136, 137, 127
131, 142, 161, 145
159, 107, 134, 144
123, 142, 132, 133
142, 158, 114, 136
130, 129, 143, 160
141, 161, 142, 142
127, 119, 144, 167
146, 154, 147, 174
147, 144, 143, 134
126, 149, 148, 130
130, 149, 151, 133
136, 163, 152, 142
143, 152, 138, 129
152, 155, 172, 159
160, 141, 156, 165
166, 172, 137, 157
168, 148, 155, 168
161, 154, 158, 137
169, 170, 162, 154
146, 148, 171, 153
159, 147, 158, 145
145, 153, 164, 158
161, 154, 164, 156
186, 152, 192, 150
182, 173, 174, 179
177, 144, 142, 156
171, 160, 165, 195
159, 170, 154, 156
187, 167, 144, 178
181, 184, 175, 163
167, 159, 166, 159
160, 175, 167, 172
183, 160, 168, 139
163, 180, 145, 147
162, 174, 136, 180
157, 161, 156, 164
179, 175, 171, 190
163, 174, 164, 174
166, 178, 187, 177
185, 160, 182, 188
171, 198, 178, 180
209, 168, 170, 166
186, 156, 205, 189
169, 196, 202, 170
182, 193, 186, 222
170, 201, 191, 211
210, 196, 207, 188
204, 189, 197, 203
187, 177, 189, 198
190, 182, 201, 219
228, 227, 184, 209
186, 197, 193, 204
206, 210, 200, 237
209, 177, 223, 193
193, 213, 201, 220
219, 206, 227, 242
202, 241, 248, 213
194, 203, 223, 221
216, 203, 205, 234
255, 221, 207, 225
219, 228, 202, 225
252, 243, 216, 224
236, 232, 219, 225
230, 241, 245, 209
222, 260, 250, 220
211, 244, 279, 259
238, 234, 250, 210
209, 235, 240, 257
256, 246, 274, 274
263, 236, 268, 254
243, 262, 254, 293
270, 285, 252, 282
270, 261, 276, 272
306, 283, 274, 263
303, 261, 259, 273
306, 298, 299, 305
300, 297, 295, 301
242, 285, 313, 257
282, 303, 326, 285
335, 287, 296, 305
327, 306, 344, 322
351, 365, 357, 363
349, 346, 368, 390
302, 335, 357, 359
356, 404, 401, 396
400, 423, 421, 404
421, 396, 432, 453
446, 433, 483, 469
477, 485, 447, 480
508, 515, 507, 546
561, 552, 599, 585
561, 631, 642, 681
748, 725, 759, 738
849, 853, 851, 894
887, 961, 1000, 1071
1145, 1165, 1249, 1300
1345, 1418, 1454, 1648
1655, 1795, 1891, 1931
2065, 2241, 2386, 2613
2705, 2987, 3147, 3337
3560, 4054, 4319, 4649
5016, 5360, 5985, 6422
7083, 7730, 8417, 9247
9941, 10938, 11517, 13003
13895, 14808, 16211, 17215
18493, 19671, 20778, 22059
23148, 24134, 25360, 26235
27549, 28170, 28481, 29658
29785, 30022, 29950, 29997
29077, 28087, 26999, 25551
23756, 21623, 19689, 17560
15542, 13685, 11937, 10295
8829, 7612, 6457, 5677
4796, 4214, 3735, 3307
3068, 2833, 2583, 2408
2265, 2148, 2019, 1874
1780, 1648, 1573, 1510
1443, 1406, 1312, 1278
1196, 1169, 1114, 1044
966, 960, 835, 859
804, 840, 696, 691
693, 646, 639, 650
628, 585, 520, 587
531, 524, 488, 512
482, 456, 434, 462
439, 437, 431, 367
410, 375, 399, 338
395, 368, 345, 360
375, 364, 319, 338
284, 312, 313, 291
282, 315, 273, 274
269, 263, 238, 258
270, 234, 267, 237
225, 248, 244, 248
253, 241, 242, 220
234, 215, 226, 240
223, 219, 207, 204
212, 207, 211, 211
192, 217, 208, 199
202, 173, 185, 211
210, 189, 199, 199
188, 195, 163, 171
174, 187, 177, 164
183, 200, 161, 167
189, 181, 155, 157
159, 161, 182, 150
164, 147, 147, 150
166, 175, 132, 154
155, 153, 139, 145
144, 157, 137, 151
149, 130, 142, 158
158, 155, 158, 140
157, 125, 120, 127
149, 147, 164, 149
142, 130, 142, 131
151, 120, 148, 139
140, 137, 142, 133
130, 107, 131, 122
116, 148, 132, 121
132, 133, 127, 122
125, 131, 127, 122
121, 112, 113, 124
111, 124, 109, 121
129, 128, 119, 112
113, 110, 116, 114
96, 115, 120, 117
120, 118, 116, 110
104, 92, 126, 109
102, 99, 115, 103
109, 130, 124, 122
123, 93, 118, 121
125, 125, 109, 88
99, 114, 105, 122
100, 107, 132, 112
86, 95, 110, 98
120, 113, 106, 91
110, 93, 111, 101
108, 104, 106, 89
109, 114, 100, 104
106, 100, 117, 107
96, 111, 90, 127
116, 96, 87, 96
102, 93, 110, 91
98, 99, 87, 96
103, 97, 84, 101
111, 104, 96, 100
99, 99, 93, 87
89, 102, 96, 98
89, 85, 90, 102
96, 118, 98, 117
108, 102, 90, 96
106, 84, 107, 81
105, 112, 104, 81
99, 98, 108, 85
95, 91, 88, 85
92, 114, 79, 103
87, 102, 96, 95
69, 92, 91, 115
93, 106, 111, 74
94, 102, 91, 84
106, 91, 101, 89
95, 97, 89, 96
101, 105, 97, 83
104, 80, 97, 106
100, 86, 105, 81
97, 90, 82, 95
112, 99, 96, 96
92, 84, 90, 93
89, 98, 87, 86
82, 97, 81, 90
84, 79, 101, 77
93, 97, 72, 82
84, 92, 95, 88
93, 90, 79, 107
98, 101, 90, 118
87, 93, 95, 82
84, 93, 98, 94
96, 96, 81, 77
77, 78, 94, 94
94, 101, 76, 85
81, 72, 90, 82
100, 85, 77, 88
101, 94, 85, 100
94, 88, 66, 82
81, 70, 88, 88
90, 92, 74, 75
89, 86, 105, 92
102, 96, 73, 81
88, 95, 85, 99
90, 81, 100, 63
95, 83, 91, 85
77, 88, 73, 82
94, 94, 93, 91
99, 75, 63, 86
73, 63, 85, 76
64, 86, 81, 79
85, 80, 74, 89
91, 82, 84, 86
71, 84, 90, 84
76, 87, 85, 83
78, 85, 87, 83
77, 70, 71, 89
78, 65, 84, 72
73, 77, 91, 86
82, 85, 69, 89
62, 74, 89, 84
99, 77, 87, 103
76, 72, 96, 85
109, 71, 76, 95
81, 73, 95, 76
75, 108, 75, 84
87, 82, 68, 79
85, 86, 75, 87
99, 85, 87, 83
71, 72, 83, 63
102, 82, 84, 79
87, 97, 71, 81
101, 71, 84, 84
98, 82, 80, 82
86, 89, 64, 78
73, 96, 85, 79
90, 77, 65, 98
94, 93, 97, 79
72, 69, 92, 84
86, 81, 92, 92
80, 69, 89, 88
79, 82, 76, 81
83, 80, 81, 82
64, 78, 77, 87
71, 84, 75, 70
79, 74, 89, 96
77, 84, 77, 78
76, 89, 95, 72
80, 91, 89, 84
85, 89, 82, 88
76, 83, 89, 62
69, 80, 78, 84
92, 87, 82, 76
77, 83, 82, 75
74, 80, 100, 85
72, 71, 90, 76
87, 70, 94, 73
92, 95, 73, 95
76, 69, 67, 81
84, 73, 67, 99
78, 73, 69, 95
62, 96, 67, 79
77, 85, 84, 81
76, 79, 62, 97
87, 67, 95, 98
84, 86, 85, 82
100, 79, 63, 70
85, 107, 88, 78
69, 83, 86, 90
84, 76, 78, 79
81, 77, 78, 75
97, 76, 85, 63
56, 88, 87, 84
85, 67, 109, 76
88, 81, 75, 93
83, 72, 90, 66
78, 76, 75, 77
80, 94, 80, 95
79, 73, 78, 69
77, 93, 78, 97
79, 95, 73, 92
87, 93, 99, 80
86, 93, 81, 77
87, 82, 78, 93
92, 82, 78, 92
65, 77, 86, 78
80, 94, 89, 80
81, 79, 81, 89
82, 74, 84, 77
95, 95, 91, 89
92, 84, 82, 68
102, 77, 76, 68
86, 84, 74, 99
71, 72, 69, 67
82, 86, 74, 72
67, 78, 90, 66
87, 88, 94, 74
80, 79, 85, 72
81, 80, 76, 81
84, 84, 59, 77
87, 81, 91, 84
79, 83, 89, 92
64, 79, 89, 93
86, 91, 81, 84
83, 94, 85, 80
102, 85, 90, 71
90, 81, 98, 78
91, 89, 80, 85
81, 86, 75, 91
97, 91, 86, 90
75, 82, 63, 70
76, 75, 82, 79
83, 82, 80, 94
91, 83, 81, 80
89, 82, 89, 82
93, 74, 83, 83
87, 89, 75, 97
100, 93, 75, 94
85, 84, 84, 88
106, 68, 63, 92
97, 92, 98, 91
80, 88, 83, 94
77, 95, 83, 85
83, 89, 72, 104
71, 87, 78, 78
88, 75, 92, 82
83, 78, 95, 74
83, 82, 85, 98
97, 81, 82, 82
81, 76, 78, 82
88, 69, 75, 91
97, 79, 92, 75
88, 73, 77, 84
86, 98, 89, 84
94, 96, 69, 83
80, 81, 89, 74
80, 100, 77, 70
91, 85, 93, 71
91, 78, 75, 83
86, 94, 85, 109
88, 99, 91, 79
81, 77, 107, 71
72, 70, 79, 65
79, 77, 84, 83
94, 78, 87, 97
81, 84, 83, 62
86, 81, 103, 80
84, 85, 80, 72
88, 78, 82, 104
62, 86, 75, 83
76, 71, 97, 90
95, 96, 67, 81
79, 98, 83, 92
73, 93, 96, 98
84, 88, 94, 100
71, 95, 87, 97
90, 86, 82, 91
87, 83, 87, 90
85, 76, 88, 90
80, 91, 108, 90
94, 71, 80, 69
87, 88, 81, 104
91, 86, 90, 90
78, 88, 76, 76
106, 74, 103, 87
79, 86, 95, 85
88, 81, 103, 94
78, 89, 77, 107
90, 100, 83, 94
79, 85, 87, 109
89, 91, 81, 89
71, 93, 107, 90
96, 81, 99, 81
113, 82, 75, 76
81, 85, 78, 72
92, 101, 94, 85
95, 103, 90, 93
87, 96, 100, 89
102, 73, 87, 80
107, 93, 90, 77
67, 84, 81, 97
108, 88, 93, 114
102, 101, 100, 81
83, 109, 112, 85
90, 108, 91, 70
99, 89, 82, 81
89, 95, 93, 68
88, 97, 82, 80
76, 85, 74, 94
92, 94, 100, 97
83, 90, 109, 87
78, 72, 102, 89
91, 99, 84, 96
102, 98, 82, 90
81, 79, 88, 88
74, 93, 84, 82
104, 85, 92, 98
84, 99, 100, 99
88, 72, 94, 84
100, 92, 83, 92
87, 90, 79, 118
86, 107, 87, 88
98, 73, 83, 99
104, 73, 98, 94
95, 100, 103, 80
103, 78, 81, 65
91, 102, 94, 90
87, 97, 92, 95
85, 90, 100, 99
104, 88, 95, 83
89, 98, 94, 89
80, 97, 97, 89
94, 85, 98, 74
77, 88, 95, 83
93, 98, 106, 79
84, 99, 93, 83
72, 108, 97, 97
103, 90, 93, 94
104, 80, 92, 79
97, 83, 79, 87
94, 95, 111, 98
96, 95, 89, 95
81, 93, 86, 98
96, 88, 102, 78
106, 85, 95, 92
103, 84, 114, 87
86, 82, 106, 105
78, 97, 91, 80
89, 90, 109, 94
91, 93, 90, 105
98, 97, 103, 101
104, 95, 101, 97
99, 87, 84, 99
101, 87, 92, 92
91, 85, 119, 90
83, 97, 110, 91
102, 99, 97, 111
91, 103, 115, 95
93, 93, 99, 90
85, 81, 105, 90
101, 93, 89, 94
77, 91, 93, 96
80, 99, 78, 83
94, 99, 84, 95
106, 79, 114, 96
109, 116, 111, 109
91, 91, 107, 97
110, 112, 89, 91
105, 109, 84, 92
99, 96, 94, 105
111, 114, 90, 87
95, 102, 96, 100
130, 103, 112, 100
101, 97, 100, 89
128, 105, 94, 98
97, 106, 93, 76
105, 96, 92, 100
90, 96, 102, 101
102, 81, 111, 103
93, 98, 89, 99
105, 109, 99, 90
93, 112, 105, 98
104, 99, 99, 90
98, 99, 86, 92
104, 90, 115, 113
108, 103, 98, 107
105, 101, 104, 104
93, 104, 106, 101
102, 93, 114, 101
125, 113, 115, 122
116, 125, 142, 119
118, 126, 112, 141
139, 142, 136, 123
127, 161, 154, 152
178, 197, 185, 199
189, 230, 243, 252
271, 270, 299, 326
332, 345, 371, 373
387, 394, 442, 413
439, 396, 397, 444
423, 384, 409, 399
387, 319, 337, 340
352, 345, 308, 325
296, 253, 267, 276
264, 242, 256, 216
227, 235, 222, 231
224, 189, 220, 215
228, 203, 235, 201
214, 210, 193, 207
206, 201, 208, 185
187, 195, 196, 209
218, 210, 248, 224
244, 197, 228, 226
190, 234, 244, 253
240, 224, 218, 241
231, 219, 245, 249
234, 259, 255, 279
252, 263, 262, 286
290, 261, 248, 297
272, 310, 283, 307
326, 312, 286, 314
329, 339, 339, 355
381, 365, 363, 364
372, 334, 387, 363
362, 339, 375, 373
341, 397, 376, 350
385, 380, 360, 389
331, 337, 352, 337
371, 350, 354, 341
372, 342, 342, 376
348, 340, 359, 355
371, 362, 317, 351
335, 341, 329, 334
351, 355, 384, 357
332, 331, 355, 359
347, 352, 333, 360
363, 365, 372, 363
341, 320, 390, 365
321, 353, 374, 387
362, 400, 379, 369
383, 396, 372, 389
379, 426, 394, 405
412, 427, 399, 405
431, 430, 437, 416
441, 444, 467, 495
441, 449, 479, 465
476, 497, 471, 527
516, 499, 533, 565
505, 595, 579, 583
627, 614, 648, 611
639, 669, 661, 653
651, 702, 736, 694
630, 718, 741, 672
682, 681, 703, 722
731, 732, 684, 671
670, 665, 672, 606
600, 592, 580, 549
577, 562, 572, 538
542, 534, 477, 508
492, 468, 488, 445
418, 429, 456, 411
407, 424, 387, 392
391, 408, 406, 389
361, 371, 370, 327
352, 304, 305, 366
348, 360, 346, 343
329, 342, 304, 346
297, 304, 299, 270
313, 303, 302, 276
329, 291, 275, 284
262, 230, 294, 294
283, 282, 286, 255
256, 264, 265, 235
278, 274, 280, 285
244, 263, 245, 240
260, 263, 235, 251
230, 234, 248, 230
255, 253, 246, 251
219, 229, 249, 229
256, 223, 256, 242
238, 228, 223, 246
241, 234, 214, 235
245, 246, 236, 214
252, 205, 227, 203
222, 231, 210, 231
197, 222, 233, 216
229, 250, 214, 209
240, 249, 237, 212
212, 240, 229, 209
234, 233, 200, 248
198, 210, 217, 240
234, 230, 226, 207
242, 199, 219, 250
232, 229, 236, 204
219, 213, 190, 193
222, 229, 202, 216
196, 184, 193, 188
209, 199, 195, 195
187, 181, 178, 194
183, 166, 182, 186
170, 186, 167, 176
184, 145, 167, 127
163, 158, 157, 163
150, 154, 165, 168
171, 145, 151, 161
184, 157, 126, 131
157, 141, 134, 156
139, 148, 163, 113
155, 134, 135, 142
130, 134, 133, 116
140, 136, 117, 135
144, 117, 134, 134
131, 147, 115, 116
129, 136, 129, 138
135, 127, 104, 129
140, 127, 111, 126
136, 119, 105, 136
119, 120, 121, 123
134, 113, 104, 132
102, 127, 132, 113
107, 130, 129, 130
123, 110, 137, 104
124, 111, 122, 98
107, 114, 118, 116
106, 99, 108, 108
125, 105, 122, 114
126, 137, 104, 118
110, 99, 118, 107
101, 97, 112, 126
111, 106, 104, 97
123, 100, 110, 113
110, 126, 123, 127
130, 101, 125, 109
125, 90, 124, 105
115, 128, 115, 110
98, 90, 117, 113
117, 99, 97, 135
89, 94, 136, 112
110, 106, 114, 120
139, 112, 110, 96
111, 102, 109, 113
112, 95, 107, 122
102, 124, 95, 121
108, 113, 113, 121
97, 125, 136, 107
106, 119, 107, 100
110, 116, 103, 109
101, 85, 114, 118
91, 106, 102, 116
113, 119, 106, 102
88, 105, 118, 117
99, 115, 111, 109
97, 128, 122, 107
115, 114, 95, 115
110, 119, 117, 122
104, 92, 115, 105
122, 123, 93, 104
117, 125, 105, 110
113, 121, 101, 98
112, 97, 95, 118
119, 106, 100, 88
120, 101, 100, 101
117, 102, 102, 115
103, 100, 107, 103
102, 122, 98, 91
138, 116, 104, 102
105, 135, 114, 112
108, 94, 122, 128
135, 119, 107, 99
109, 116, 118, 135
116, 110, 100, 104
102, 122, 104, 108
102, 117, 133, 117
91, 106, 123, 93
102, 117, 94, 112
105, 110, 133, 129
132, 118, 96, 103
99, 116, 104, 125
129, 114, 106, 109
114, 99, 137, 120
107, 110, 114, 115
110, 97, 113, 104
122, 124, 104, 101
133, 111, 136, 112
102, 127, 103, 108
117, 108, 139, 120
138, 111, 130, 123
104, 112, 122, 114
114, 125, 111, 117
138, 116, 120, 128
121, 117, 104, 126
128, 119, 130, 115
151, 136, 125, 144
122, 125, 144, 128
131, 130, 123, 137
111, 136, 133, 133
141, 143, 133, 130
123, 131, 136, 149
134, 145, 138, 133
140, 143, 130, 123
160, 137, 150, 142
141, 151, 120, 157
164, 174, 158, 139
146, 137, 154, 180
159, 142, 155, 149
191, 180, 171, 139
159, 135, 168, 154
141, 184, 153, 166
153, 164, 121, 162
146, 160, 154, 156
144, 149, 158, 133
143, 138, 162, 168
161, 118, 164, 128
154, 140, 166, 140
157, 152, 159, 137
145, 148, 136, 156
127, 126, 130, 145
141, 116, 143, 115
145, 128, 127, 114
131, 129, 131, 126
132, 124, 139, 151
119, 119, 127, 153
144, 138, 120, 118
128, 106, 127, 120
125, 118, 145, 126
131, 138, 135, 134
103, 131, 121, 129
122, 123, 115, 118
123, 128, 142, 143
121, 124, 116, 129
116, 120, 128, 126
134, 128, 115, 127
125, 137, 128, 120
137, 123, 119, 153
115, 131, 128, 129
139, 133, 131, 110
126, 126, 131, 116
123, 145, 119, 111
117, 126, 110, 96
114, 124, 133, 123
116, 125, 112, 120
108, 138, 111, 115
111, 130, 127, 114
145, 129, 114, 121
109, 103, 106, 117
109, 121, 115, 106
91, 138, 128, 128
119, 94, 93, 131
125, 110, 101, 128
127, 110, 129, 97
120, 126, 104, 117
108, 116, 122, 118
139, 116, 128, 104
143, 123, 114, 145
120, 128, 126, 127
102, 134, 122, 96
142, 108, 116, 127
106, 126, 121, 121
119, 135, 129, 108
119, 109, 114, 139
136, 115, 113, 128
124, 111, 113, 114
122, 130, 122, 123
125, 125, 128, 126
128, 144, 121, 132
115, 107, 125, 126
137, 113, 149, 112
105, 119, 128, 117
153, 137, 129, 97
103, 125, 133, 115
122, 106, 95, 144
113, 121, 122, 115
109, 134, 111, 117
140, 117, 124, 136
128, 125, 123, 129
98, 132, 125, 145
138, 148, 128, 122
133, 140, 141, 134
109, 135, 145, 118
128, 139, 142, 124
128, 145, 140, 123
135, 129, 137, 133
148, 116, 144, 158
129, 134, 121, 137
152, 156, 148, 151
149, 139, 137, 141
146, 166, 154, 170
158, 171, 165, 156
169, 160, 144, 168
180, 182, 170, 169
182, 184, 192, 185
179, 188, 182, 167
216, 214, 227, 217
240, 231, 228, 243
251, 260, 252, 302
254, 270, 301, 295
293, 302, 304, 361
341, 373, 388, 386
453, 474, 430, 457
512, 541, 561, 683
685, 739, 766, 817
855, 952, 999, 1112
1100, 1226, 1339, 1389
1382, 1494, 1500, 1614
1628, 1686, 1777, 1726
1814, 1818, 1842, 1907
1869, 1813, 1848, 1770
1610, 1539, 1518, 1523
1431, 1380, 1232, 1196
1183, 1105, 1022, 1060
981, 960, 888, 842
784, 698, 704, 592
542, 492, 451, 460
404, 402, 354, 334
349, 341, 319, 266
297, 288, 286, 249
262, 233, 237, 253
232, 207, 241, 209
206, 184, 211, 180
207, 215, 168, 187
163, 187, 187, 162
185, 154, 157, 155
163, 166, 158, 167
169, 162, 133, 166
155, 166, 163, 135
133, 132, 138, 153
161, 151, 155, 150
151, 140, 146, 156
139, 172, 142, 132
122, 148, 146, 142
115, 131, 129, 136
141, 145, 125, 147
133, 148, 140, 116
140, 136, 109, 127
131, 134, 122, 142
130, 137, 147, 149
140, 106, 143, 135
123, 131, 149, 110
129, 126, 120, 115
129, 127, 107, 145
137, 131, 120, 134
114, 135, 144, 134
155, 124, 128, 156
138, 129, 115, 108
121, 127, 132, 115
132, 113, 162, 137
100, 131, 143, 134
127, 145, 130, 137
129, 147, 132, 115
146, 133, 120, 116
127, 138, 130, 140
108, 150, 134, 151
134, 127, 139, 139
135, 140, 147, 131
139, 131, 124, 130
145, 134, 135, 133
155, 141, 153, 148
131, 131, 112, 134
134, 153, 129, 133
137, 123, 127, 139
155, 135, 138, 144
117, 132, 130, 131
149, 133, 128, 123
115, 124, 117, 143
119, 140, 142, 126
163, 117, 116, 127
126, 139, 134, 140
144, 117, 111, 111
114, 134, 120, 128
138, 126, 112, 119
120, 120, 129, 134
113, 119, 148, 122
131, 119, 129, 135
145, 121, 138, 139
114, 124, 125, 134
108, 144, 126, 106
127, 110, 112, 127
122, 112, 123, 118
105, 136, 119, 131
115, 123, 120, 102
124, 141, 122, 130
134, 146, 137, 142
110, 127, 108, 133
116, 117, 124, 127
105, 98, 103, 110
105, 130, 105, 132
119, 128, 130, 107
124, 100, 118, 136
128, 134, 117, 128
95, 122, 116, 112
116, 129, 124, 99
124, 138, 129, 125
127, 134, 110, 117
122, 128, 132, 126
121, 108, 111, 133
95, 111, 130, 129
144, 110, 118, 130
111, 122, 137, 121
133, 113, 130, 107
128, 135, 106, 118
104, 130, 107, 92
137, 127, 132, 126
104, 109, 122, 147
114, 125, 116, 111
120, 123, 136, 127
118, 120, 121, 140
125, 124, 116, 124
119, 127, 136, 113
125, 114, 140, 124
102, 124, 129, 124
132, 146, 127, 140
131, 121, 123, 144
146, 153, 146, 168
138, 121, 121, 136
142, 117, 119, 126
140, 144, 145, 117
130, 135, 123, 127
127, 129, 133, 139
126, 135, 133, 133
148, 133, 126, 157
125, 142, 124, 148
146, 149, 129, 153
144, 150, 156, 137
141, 136, 161, 145
166, 138, 171, 147
127, 153, 162, 137
142, 166, 140, 166
165, 152, 136, 149
164, 166, 148, 165
169, 170, 186, 172
149, 164, 175, 183
165, 181, 183, 190
177, 165, 184, 178
178, 201, 201, 182
188, 200, 179, 192
166, 190, 189, 207
190, 220, 200, 193
168, 191, 191, 210
179, 177, 176, 189
165, 182, 159, 173
188, 189, 173, 156
198, 167, 166, 185
210, 179, 148, 164
176, 186, 159, 158
164, 187, 152, 152
141, 161, 140, 159
161, 158, 141, 152
155, 157, 151, 153
158, 146, 143, 160
124, 149, 156, 115
150, 147, 129, 141
140, 144, 131, 139
147, 116, 136, 116
149, 137, 130, 137
145, 131, 141, 112
134, 127, 129, 111
127, 97, 123, 119
124, 112, 130, 129
122, 98, 127, 120
135, 109, 115, 143
114, 120, 93, 114
122, 99, 128, 134
116, 113, 112, 95
111, 116, 97, 96
120, 102, 108, 99
126, 103, 115, 110
107, 112, 111, 106
111, 127, 112, 107
109, 119, 117, 109
109, 111, 94, 129
91, 102, 115, 124
111, 94, 103, 111
106, 109, 111, 101
89, 118, 86, 119
119, 108, 101, 118
123, 105, 100, 116
100, 113, 106, 112
118, 112, 105, 114
105, 97, 99, 114
111, 105, 109, 104
111, 92, 113, 113
95, 119, 91, 83
94, 114, 97, 101
87, 116, 92, 90
94, 86, 106, 104
96, 87, 110, 89
107, 115, 89, 96
110, 99, 95, 107
95, 92, 106, 99
96, 118, 94, 97
78, 94, 90, 115
108, 109, 84, 116
114, 111, 91, 103
96, 100, 104, 107
95, 93, 114, 88
96, 92, 105, 121
84, 111, 84, 104
105, 100, 89, 84
82, 99, 119, 81
113, 93, 104, 92
110, 86, 99, 88
90, 117, 121, 86
100, 105, 93, 104
99, 110, 95, 91
94, 112, 107, 86
91, 91, 106, 107
110, 109, 100, 99
92, 102, 108, 114
110, 109, 109, 98
104, 94, 104, 107
69, 93, 112, 93
98, 104, 93, 95
98, 96, 111, 94
93, 120, 83, 91
99, 108, 111, 97
83, 94, 92, 106
85, 98, 100, 92
87, 75, 106, 85
102, 96, 96, 119
107, 106, 89, 102
103, 100, 85, 97
89, 121, 85, 92
90, 89, 89, 83
81, 84, 84, 102
87, 86, 103, 93
89, 89, 101, 81
108, 110, 100, 87
114, 92, 89, 107
87, 97, 91, 104
92, 81, 98, 86
104, 108, 93, 82
97, 84, 97, 86
98, 73, 97, 103
91, 85, 79, 79
90, 84, 100, 101
86, 99, 95, 90
94, 89, 79, 81
79, 80, 80, 94
72, 91, 96, 81
84, 92, 69, 94
92, 100, 80, 95
79, 87, 91, 101
83, 99, 80, 72
72, 94, 90, 90
92, 92, 70, 82
83, 84, 88, 84
89, 87, 78, 82
79, 82, 81, 89
73, 65, 96, 89
98, 86, 79, 86
68, 89, 80, 85
81, 102, 102, 72
95, 80, 70, 69
71, 68, 82, 94
94, 88, 93, 84
75, 91, 66, 82
74, 78, 86, 82
73, 92, 87, 95
73, 77, 84, 75
79, 82, 73, 84
72, 75, 75, 76
86, 74, 82, 78
95, 71, 84, 66
73, 83, 71, 79
87, 72, 79, 94
74, 82, 73, 68
87, 81, 82, 70
65, 80, 100, 72
70, 71, 69, 80
75, 70, 78, 72
82, 67, 61, 77
79, 70, 77, 87
79, 91, 70, 76
66, 100, 96, 79
75, 78, 72, 80
79, 78, 60, 85
67, 86, 65, 78
58, 86, 81, 74
74, 71, 83, 83
90, 80, 69, 78
80, 56, 63, 70
62, 81, 59, 79
91, 70, 61, 73
83, 88, 62, 66
79, 78, 78, 75
77, 76, 66, 83
74, 76, 83, 73
75, 81, 85, 63
59, 84, 70, 84
86, 90, 70, 74
95, 86, 73, 81
112, 66, 74, 83
73, 72, 75, 91
68, 84, 82, 78
89, 79, 83, 82
91, 67, 70, 75
56, 81, 86, 72
78, 71, 76, 82
79, 78, 94, 60
69, 68, 74, 89
85, 71, 71, 78
75, 69, 73, 83
72, 76, 62, 83
72, 77, 88, 88
77, 79, 82, 76
81, 67, 83, 73
65, 81, 65, 75
71, 75, 61, 63
75, 81, 89, 74
79, 91, 65, 80
72, 92, 70, 86
83, 63, 83, 78
82, 74, 66, 63
67, 88, 66, 79
100, 81, 64, 65
73, 67, 77, 83
68, 88, 82, 76
60, 69, 73, 88
50, 79, 65, 74
70, 82, 71, 88
80, 86, 71, 85
70, 75, 82, 69
83, 57, 91, 91
67, 74, 94, 73
91, 62, 86, 68
85, 74, 76, 67
75, 85, 88, 84
75, 66, 76, 81
85, 71, 90, 70
56, 62, 82, 77
74, 79, 76, 69
90, 84, 80, 89
87, 66, 93, 70
76, 73, 69, 96
63, 78, 73, 70
67, 73, 77, 68
73, 81, 78, 67
85, 72, 64, 64
68, 71, 66, 82
79, 68, 75, 76
68, 66, 58, 83
67, 74, 70, 66
84, 76, 84, 77
69, 67, 81, 91
92, 64, 79, 63
96, 59, 73, 73
84, 83, 80, 79
74, 88, 71, 57
86, 76, 86, 89
75, 62, 65, 67
80, 95, 60, 86
73, 81, 75, 75
75, 72, 62, 83
75, 70, 73, 73
87, 77, 59, 85
77, 74, 62, 78
80, 61, 86, 91
91, 79, 67, 90
85, 74, 63, 81
77, 74, 66, 63
59, 78, 98, 96
79, 77, 68, 85
80, 85, 79, 80
74, 66, 79, 91
70, 79, 88, 74
66, 85, 69, 76
82, 85, 86, 73
79, 81, 72, 83
58, 76, 74, 65
80, 81, 64, 76
73, 72, 77, 58
69, 90, 61, 93
64, 64, 81, 60
90, 72, 67, 81
70, 81, 82, 67
77, 77, 67, 77
70, 74, 49, 72
85, 68, 85, 64
86, 76, 59, 60
85, 67, 74, 79
86, 77, 67, 60
73, 70, 64, 65
72, 78, 74, 82
74, 56, 87, 63
89, 85, 76, 71
71, 69, 79, 71
78, 64, 88, 72
72, 68, 76, 66
72, 67, 65, 62
90, 88, 78, 68
81, 83, 84, 74
77, 63, 78, 83
64, 91, 70, 82
76, 73, 86, 70
77, 64, 73, 76
81, 71, 74, 64
87, 79, 75, 75
83, 81, 82, 80
75, 75, 85, 77
67, 71, 78, 73
81, 81, 67, 63
73, 102, 66, 80
75, 70, 77, 84
75, 77, 66, 63
81, 93, 87, 74
69, 74, 78, 69
75, 68, 89, 71
75, 68, 80, 93
89, 79, 58, 69
88, 58, 62, 77
66, 59, 69, 92
75, 76, 81, 87
73, 82, 97, 78
84, 88, 96, 92
59, 77, 80, 84
72, 93, 79, 82
87, 79, 87, 79
69, 71, 85, 68
75, 95, 83, 90
77, 81, 84, 79
76, 74, 88, 55
76, 80, 79, 84
91, 95, 89, 68
81, 82, 70, 78
98, 78, 76, 78
79, 74, 77, 78
75, 67, 72, 92
66, 77, 87, 103
86, 75, 68, 95
79, 84, 85, 82
64, 80, 68, 82
69, 80, 90, 78
70, 65, 69, 86
79, 69, 76, 76
91, 69, 75, 77
88, 61, 69, 83
78, 80, 78, 64
70, 72, 65, 90
65, 84, 77, 78
80, 89, 76, 75
72, 76, 76, 76
81, 59, 65, 73
95, 69, 90, 70
90, 68, 74, 71
68, 85, 72, 69
85, 82, 84, 82
76, 84, 75, 71
92, 72, 76, 84
84, 66, 72, 69
67, 80, 91, 83
71, 67, 71, 69
69, 75, 80, 80
71, 81, 79, 99
89, 72, 67, 81
72, 72, 61, 71
67, 79, 75, 88
74, 81, 83, 65
72, 82, 71, 91
69, 78, 69, 69
66, 67, 70, 54
64, 78, 75, 62
65, 80, 66, 69
73, 76, 66, 77
87, 85, 63, 77
57, 69, 65, 68
67, 79, 83, 67
79, 72, 82, 64
68, 66, 81, 74
64, 74, 82, 65
73, 77, 82, 82
66, 76, 56, 72
62, 75, 74, 76
59, 69, 64, 77
73, 69, 68, 70
98, 86, 68, 68
60, 82, 69, 64
73, 71, 65, 74
78, 75, 75, 70
79, 68, 70, 73
64, 64, 57, 85
60, 76, 76, 63
56, 77, 79, 70
69, 78, 80, 57
62, 64, 74, 72
75, 84, 69, 66
82, 65, 61, 65
77, 78, 74, 69
67, 77, 66, 76
66, 76, 63, 79
66, 77, 80, 68
63, 82, 75, 90
74, 76, 81, 73
60, 65, 81, 60
63, 64, 64, 65
76, 70, 69, 84
72, 73, 82, 61
57, 66, 52, 61
79, 64, 75, 74
61, 84, 88, 61
78, 74, 65, 73
61, 59, 74, 63
71, 85, 85, 60
70, 58, 87, 72
60, 70, 74, 60
69, 80, 69, 64
86, 78, 79, 62
75, 67, 69, 61
52, 68, 80, 53
71, 69, 67, 67
64, 69, 82, 73
90, 56, 59, 62
62, 67, 75, 74
57, 73, 74, 68
90, 82, 68, 77
73, 67, 76, 69
79, 58, 56, 66
66, 68, 82, 63
71, 77, 80, 76
86, 80, 74, 68
73, 60, 68, 66
58, 74, 49, 67
60, 67, 63, 57
67, 55, 78, 60
73, 75, 76, 69
63, 58, 84, 76
60, 63, 71, 72
69, 71, 64, 69
79, 70, 66, 74
67, 84, 71, 69
61, 61, 77, 67
68, 72, 58, 60
59, 68, 60, 77
59, 82, 65, 78
62, 72, 61, 74
77, 72, 70, 66
60, 59, 66, 67
66, 71, 73, 64
73, 78, 69, 71
83, 66, 66, 79
62, 60, 85, 55
52, 82, 60, 63
72, 80, 55, 57
69, 74, 74, 77
74, 54, 76, 75
65, 79, 85, 69
58, 73, 83, 69
84, 53, 73, 54
64, 65, 54, 77
69, 53, 63, 72
92, 77, 72, 76
66, 77, 71, 53
60, 62, 67, 70
76, 59, 79, 62
62, 65, 74, 87
59, 77, 68, 73
77, 71, 68, 71
76, 82, 74, 76
71, 75, 75, 67
99, 61, 83, 75
68, 69, 66, 80
83, 69, 78, 68
69, 91, 74, 67
75, 67, 75, 79
69, 69, 73, 71
72, 77, 85, 94
77, 77, 93, 111
89, 80, 90, 89
88, 83, 96, 95
97, 126, 113, 100
113, 108, 125, 124
130, 147, 136, 146
166, 164, 187, 203
242, 272, 295, 302
338, 359, 419, 433
458, 470, 519, 498
536, 554, 566, 579
570, 532, 519, 544
505, 491, 449, 431
381, 398, 383, 348
362, 375, 325, 371
325, 360, 338, 361
331, 350, 352, 356
334, 316, 303, 304
300, 259, 270, 245
206, 191, 186, 188
144, 163, 145, 125
130, 114, 98, 117
122, 97, 98, 101
102, 98, 106, 101
108, 111, 91, 80
97, 87, 97, 82
76, 92, 98, 100
89, 95, 94, 90
94, 77, 75, 87
85, 85, 64, 94
93, 91, 68, 84
85, 76, 91, 68
74, 86, 94, 80
89, 88, 72, 77
77, 79, 86, 78
77, 68, 71, 86
74, 81, 65, 58
73, 70, 69, 75
85, 83, 84, 77
109, 82, 87, 81
58, 63, 80, 71
79, 76, 76, 70
76, 79, 76, 75
72, 70, 78, 78
83, 63, 80, 76
70, 76, 76, 72
67, 80, 77, 75
73, 72, 85, 77
69, 75, 69, 65
81, 55, 80, 61
90, 87, 83, 74
66, 82, 65, 70
78, 73, 84, 89
95, 82, 61, 66
95, 67, 81, 79
81, 73, 81, 67
83, 82, 70, 79
71, 67, 75, 74
66, 83, 77, 75
67, 88, 70, 83
70, 75, 88, 74
61, 81, 75, 85
74, 84, 83, 72
107, 77, 75, 70
77, 60, 79, 65
83, 73, 82, 78
69, 78, 91, 80
64, 84, 94, 91
77, 75, 79, 62
72, 69, 68, 79
73, 81, 91, 74
73, 76, 89, 76
64, 61, 64, 67
70, 90, 71, 80
73, 93, 77, 86
84, 76, 95, 84
76, 70, 79, 76
82, 78, 91, 67
81, 71, 67, 79
79, 90, 86, 81
78, 69, 53, 75
76, 90, 73, 74
76, 90, 68, 75
92, 70, 84, 74
80, 80, 82, 87
79, 85, 82, 84
73, 86, 84, 82
94, 92, 61, 95
88, 81, 85, 70
86, 90, 75, 76
87, 79, 82, 76
81, 80, 88, 76
82, 97, 81, 78
68, 86, 69, 83
85, 86, 66, 78
76, 75, 79, 67
86, 75, 67, 91
84, 90, 66, 74
74, 72, 67, 88
85, 76, 77, 89
88, 67, 92, 66
72, 89, 81, 83
77, 89, 80, 69
68, 62, 71, 81
77, 82, 57, 71
61, 105, 88, 87
70, 67, 81, 79
77, 82, 85, 74
71, 80, 77, 61
83, 70, 81, 74
73, 79, 89, 85
69, 68, 71, 65
63, 72, 73, 97
92, 79, 76, 93
64, 70, 91, 76
90, 77, 85, 73
80, 75, 56, 69
54, 69, 80, 72
72, 81, 76, 74
92, 78, 70, 67
75, 97, 71, 72
87, 84, 81, 75
74, 86, 80, 72
93, 78, 89, 87
74, 89, 71, 83
79, 87, 72, 89
85, 77, 89, 82
87, 91, 88, 70
79, 82, 75, 86
88, 92, 100, 73
96, 87, 99, 71
111, 77, 71, 82
76, 93, 85, 99
86, 96, 74, 92
88, 97, 65, 91
94, 80, 96, 106
83, 81, 91, 92
86, 83, 95, 101
91, 86, 88, 99
86, 79, 91, 100
72, 89, 73, 80
104, 83, 82, 102
80, 95, 92, 88
80, 90, 89, 113
128, 103, 106, 100
104, 104, 100, 115
104, 87, 114, 117
100, 103, 108, 99
103, 130, 120, 110
128, 117, 108, 105
134, 152, 136, 112
131, 139, 119, 125
136, 147, 170, 151
161, 163, 172, 158
154, 153, 179, 181
209, 197, 181, 203
181, 216, 212, 210
228, 228, 229, 256
261, 276, 253, 274
299, 364, 295, 325
340, 358, 390, 414
387, 434, 420, 435
450, 432, 406, 474
474, 454, 464, 446
480, 501, 465, 499
485, 461, 414, 467
433, 461, 443, 445
441, 434, 377, 419
419, 417, 392, 382
371, 405, 401, 397
381, 360, 378, 334
336, 326, 345, 277
309, 321, 290, 253
265, 298, 243, 215
221, 220, 223, 217
185, 190, 212, 197
184, 209, 143, 175
172, 162, 181, 164
136, 156, 150, 145
141, 149, 138, 142
140, 142, 127, 140
119, 135, 124, 110
131, 118, 114, 107
129, 117, 113, 113
127, 110, 111, 105
92, 108, 121, 104
99, 123, 106, 114
113, 105, 89, 112
91, 107, 95, 104
91, 104, 116, 117
79, 105, 87, 99
95, 79, 101, 118
92, 115, 98, 105
115, 90, 113, 101
101, 113, 95, 87
104, 96, 93, 84
93, 105, 95, 88
82, 104, 108, 83
101, 97, 90, 86
117, 89, 105, 87
93, 100, 74, 87
84, 90, 86, 100
79, 71, 91, 96
75, 110, 87, 93
105, 106, 87, 103
87, 110, 102, 88
103, 89, 106, 83
109, 96, 107, 127
99, 90, 91, 117
86, 102, 98, 108
103, 82, 102, 102
100, 109, 90, 88
90, 90, 102, 119
98, 85, 86, 101
99, 95, 81, 82
103, 98, 95, 106
90, 85, 90, 90
98, 78, 97, 95
92, 105, 87, 82
97, 91, 77, 102
88, 99, 84, 90
95, 95, 78, 91
91, 89, 93, 90
101, 91, 86, 103
100, 73, 78, 90
103, 97, 65, 94
106, 81, 87, 92
89, 101, 82, 74
88, 87, 87, 104
86, 78, 84, 95
83, 84, 101, 82
99, 89, 84, 97
94, 88, 99, 87
93, 96, 103, 100
101, 103, 102, 95
110, 88, 97, 100
104, 96, 83, 85
97, 111, 109, 91
101, 95, 112, 110
101, 85, 103, 117
98, 94, 113, 109
126, 121, 123, 115
123, 120, 114, 136
107, 125, 126, 134
144, 135, 133, 166
175, 154, 157, 179
185, 191, 193, 207
232, 226, 222, 201
230, 234, 260, 257
232, 264, 239, 243
226, 236, 204, 223
224, 240, 213, 238
233, 243, 193, 188
204, 192, 187, 203
186, 168, 169, 208
171, 177, 182, 189
184, 196, 157, 164
170, 189, 185, 176
172, 155, 145, 135
132, 154, 132, 151
136, 115, 104, 109
99, 109, 92, 111
106, 95, 94, 80
96, 90, 104, 99
89, 90, 104, 73
85, 103, 97, 84
66, 85, 91, 73
78, 78, 103, 87
88, 77, 90, 84
81, 82, 88, 83
77, 67, 76, 82
67, 73, 79, 78
76, 72, 67, 82
97, 76, 71, 65
83, 88, 92, 73
73, 77, 81, 72
79, 67, 71, 64
71, 71, 85, 75
66, 78, 75, 71
82, 68, 76, 81
66, 69, 77, 85
84, 94, 93, 62
72, 69, 86, 66
70, 71, 64, 74
73, 61, 54, 73
75, 67, 74, 64
60, 85, 70, 64
84, 77, 70, 70
77, 72, 75, 76
55, 71, 85, 53
69, 50, 77, 58
62, 55, 64, 71
77, 83, 74, 76
72, 73, 70, 68
59, 76, 57, 67
61, 54, 69, 68
68, 66, 76, 78
53, 71, 67, 71
58, 57, 87, 77
52, 74, 62, 74
74, 71, 58, 65
70, 82, 70, 62
76, 74, 67, 70
64, 63, 58, 58
74, 68, 71, 72
82, 66, 68, 58
81, 54, 74, 65
50, 58, 67, 63
74, 81, 59, 83
68, 82, 65, 59
60, 73, 68, 80
71, 68, 70, 72
67, 66, 67, 57
70, 72, 60, 66
60, 67, 64, 83
61, 72, 65, 72
66, 61, 61, 61
55, 59, 65, 73
83, 81, 53, 77
60, 73, 76, 63
80, 63, 75, 47
64, 57, 73, 65
53, 74, 72, 62
54, 70, 68, 61
66, 56, 62, 63
46, 64, 52, 56
65, 74, 60, 72
63, 61, 61, 61
57, 68, 67, 64
63, 53, 75, 64
69, 69, 71, 57
77, 62, 76, 72
63, 62, 67, 74
65, 61, 54, 59
66, 68, 67, 67
76, 79, 64, 75
60, 66, 60, 59
72, 65, 67, 60
54, 70, 76, 63
61, 75, 83, 67
49, 66, 70, 70
62, 70, 56, 59
75, 69, 57, 62
74, 49, 74, 54
57, 53, 61, 74
73, 74, 64, 65
66, 91, 64, 70
55, 68, 67, 58
72, 68, 53, 58
72, 71, 66, 71
59, 60, 44, 55
71, 56, 77, 79
71, 71, 63, 69
79, 54, 66, 79
61, 64, 72, 56
76, 55, 78, 67
79, 70, 64, 59
59, 56, 70, 72
66, 59, 80, 56
71, 51, 69, 66
75, 64, 62, 61
71, 55, 48, 52
66, 60, 61, 70
57, 63, 70, 62
65, 62, 65, 61
70, 61, 64, 65
76, 73, 71, 56
63, 68, 57, 65
55, 58, 51, 57
64, 62, 61, 50
86, 44, 68, 88
72, 68, 75, 73
56, 62, 74, 61
66, 66, 53, 67
54, 62, 68, 61
55, 56, 62, 65
62, 59, 54, 66
66, 54, 60, 51
49, 55, 67, 71
70, 61, 81, 76
46, 64, 64, 65
60, 58, 61, 54
64, 70, 70, 70
66, 68, 81, 73
69, 57, 71, 84
74, 60, 75, 74
77, 73, 63, 94
66, 56, 75, 68
63, 76, 65, 67
61, 66, 57, 82
55, 80, 76, 60
72, 60, 71, 81
59, 69, 73, 55
71, 57, 73, 76
86, 59, 68, 81
85, 85, 79, 66
62, 69, 75, 86
71, 78, 58, 72
66, 75, 74, 61
73, 75, 66, 70
83, 70, 81, 75
59, 68, 71, 73
72, 58, 77, 81
69, 66, 75, 62
78, 76, 76, 68
82, 65, 68, 68
55, 76, 89, 71
67, 70, 71, 68
78, 73, 71, 62
71, 51, 61, 82
87, 74, 75, 74
74, 70, 68, 78
61, 86, 99, 83
73, 60, 67, 77
82, 80, 75, 85
65, 70, 73, 82
75, 82, 72, 73
73, 64, 73, 81
84, 84, 68, 82
79, 91, 80, 58
83, 74, 67, 87
66, 74, 81, 75
97, 79, 85, 83
98, 97, 91, 86
80, 76, 73, 80
114, 95, 86, 85
103, 77, 88, 81
91, 97, 70, 78
72, 84, 90, 89
85, 87, 86, 92
76, 75, 72, 86
66, 75, 94, 76
84, 82, 71, 78
90, 63, 79, 87
91, 62, 75, 68
66, 56, 71, 72
67, 66, 75, 72
76, 70, 75, 66
61, 91, 72, 73
78, 60, 62, 71
61, 57, 68, 77
79, 66, 62, 74
84, 72, 82, 59
81, 59, 73, 75
61, 69, 61, 58
70, 66, 77, 69
68, 74, 73, 74
63, 75, 66, 83
57, 57, 69, 78
79, 78, 74, 64
72, 74, 71, 56
69, 62, 58, 70
85, 56, 59, 75
71, 83, 58, 68
58, 55, 78, 78
68, 61, 73, 68
58, 73, 73, 78
79, 63, 67, 65
57, 77, 63, 62
62, 64, 76, 59
70, 63, 65, 71
78, 54, 75, 63
63, 65, 51, 64
60, 61, 66, 63
60, 67, 73, 71
54, 65, 70, 76
59, 72, 63, 62
73, 64, 61, 60
60, 61, 47, 64
75, 51, 47, 57
42, 61, 52, 59
64, 69, 59, 65
77, 57, 49, 54
64, 56, 57, 66
53, 69, 62, 67
62, 51, 64, 59
73, 62, 62, 52
47, 66, 55, 71
67, 58, 61, 69
63, 65, 59, 52
70, 72, 66, 70
49, 50, 62, 62
64, 65, 65, 57
66, 68, 79, 66
71, 56, 70, 56
66, 75, 57, 66
67, 74, 70, 59
65, 52, 64, 64
51, 55, 57, 57
62, 61, 58, 57
72, 62, 73, 54
72, 58, 64, 69
76, 60, 66, 68
64, 65, 54, 66
70, 55, 69, 68
55, 60, 62, 74
65, 63, 65, 61
56, 53, 69, 69
78, 58, 61, 77
58, 50, 74, 68
73, 72, 68, 58
65, 55, 52, 59
60, 65, 67, 58
69, 66, 63, 67
64, 53, 67, 61
47, 54, 69, 64
52, 64, 47, 65
40, 46, 63, 70
51, 59, 70, 61
54, 56, 60, 60
64, 74, 62, 57
60, 56, 74, 66
72, 58, 56, 65
50, 58, 65, 54
79, 60, 60, 60
63, 49, 74, 64
53, 65, 60, 71
54, 60, 52, 74
60, 67, 56, 52
68, 68, 60, 62
56, 76, 53, 55
64, 66, 76, 51
67, 57, 49, 68
52, 51, 67, 81
61, 77, 46, 87
71, 53, 59, 74
66, 63, 65, 55
63, 67, 66, 60
66, 79, 58, 63
85, 56, 66, 63
57, 54, 51, 75
62, 65, 70, 53
64, 74, 59, 63
84, 66, 68, 56
79, 63, 62, 46
64, 57, 55, 53
69, 56, 59, 65
55, 67, 56, 71
66, 79, 73, 60
64, 60, 81, 83
74, 68, 67, 62
80, 63, 59, 71
69, 64, 55, 62
67, 63, 69, 68
61, 73, 65, 70
60, 63, 71, 78
57, 67, 72, 62
80, 60, 83, 65
75, 47, 73, 58
67, 60, 62, 68
62, 63, 62, 80
61, 62, 71, 48
71, 75, 67, 74
59, 56, 54, 80
69, 66, 63, 74
67, 53, 59, 59
74, 63, 87, 71
66, 60, 77, 66
58, 56, 69, 59
67, 74, 66, 65
76, 64, 52, 62
70, 60, 63, 55
59, 77, 71, 70
60, 72, 60, 76
62, 75, 48, 77
76, 57, 87, 64
88, 71, 70, 64
62, 76, 57, 65
69, 73, 82, 70
70, 67, 65, 79
56, 78, 60, 76
74, 74, 77, 69
75, 72, 56, 62
82, 72, 66, 71
73, 61, 68, 67
72, 61, 79, 72
59, 75, 67, 58
64, 69, 80, 73
69, 65, 71, 83
71, 73, 65, 84
71, 68, 74, 67
70, 78, 68, 66
79, 74, 76, 73
66, 74, 77, 68
90, 78, 75, 83
63, 83, 82, 67
74, 68, 72, 71
79, 73, 77, 78
70, 84, 76, 78
79, 80, 65, 76
92, 77, 86, 69
88, 94, 85, 101
82, 86, 77, 82
88, 84, 87, 73
81, 83, 77, 84
82, 73, 91, 86
81, 82, 84, 88
79, 102, 96, 96
92, 99, 67, 92
72, 89, 113, 106
108, 85, 88, 121
95, 90, 104, 105
116, 103, 97, 107
101, 109, 112, 101
107, 126, 116, 105
132, 113, 113, 122
133, 126, 116, 136
119, 158, 134, 128
123, 136, 112, 127
153, 167, 143, 161
180, 181, 146, 150
183, 163, 165, 168
170, 177, 190, 178
172, 186, 164, 195
187, 192, 198, 193
217, 222, 217, 235
231, 236, 226, 231
224, 224, 234, 243
226, 270, 237, 252
219, 229, 226, 228
235, 276, 251, 255
252, 233, 263, 266
253, 258, 234, 238
250, 231, 241, 238
195, 214, 214, 231
231, 217, 218, 190
221, 234, 193, 222
220, 221, 192, 201
179, 200, 182, 190
185, 188, 182, 177
197, 202, 198, 178
178, 157, 183, 176
174, 158, 159, 168
160, 158, 149, 141
148, 138, 137, 138
159, 131, 137, 140
126, 135, 129, 128
126, 127, 111, 130
119, 112, 91, 116
100, 117, 111, 124
105, 113, 105, 93
99, 101, 102, 111
118, 98, 103, 98
93, 83, 100, 105
95, 95, 99, 86
92, 103, 86, 101
91, 92, 91, 89
88, 80, 72, 66
81, 99, 83, 89
91, 112, 98, 78
56, 82, 76, 80
74, 87, 67, 75
79, 74, 93, 102
80, 83, 80, 100
80, 90, 87, 84
80, 75, 78, 79
81, 65, 77, 64
82, 73, 81, 86
68, 64, 88, 82
77, 90, 80, 55
85, 79, 74, 75
83, 84, 73, 70
81, 73, 90, 98
70, 83, 76, 65
82, 71, 74, 62
90, 67, 77, 88
76, 70, 82, 67
75, 77, 61, 70
68, 64, 74, 78
76, 83, 72, 63
84, 62, 64, 71
71, 60, 69, 67
85, 74, 67, 64
73, 74, 66, 60
82, 79, 75, 70
79, 69, 74, 74
70, 77, 71, 78
68, 73, 75, 73
82, 65, 74, 59
77, 66, 74, 67
64, 75, 74, 60
78, 70, 66, 70
63, 62, 62, 77
76, 53, 80, 73
70, 66, 71, 59
52, 63, 56, 66
62, 75, 76, 57
74, 62, 89, 76
54, 83, 61, 68
69, 67, 58, 86
63, 69, 80, 55
71, 53, 61, 58
74, 56, 65, 68
63, 70, 58, 64
67, 75, 72, 75
58, 65, 77, 66
57, 75, 55, 72
69, 60, 58, 64
63, 60, 78, 74
68, 59, 59, 70
69, 56, 70, 72
76, 57, 81, 61
83, 81, 75, 65
87, 59, 67, 58
57, 76, 74, 62
70, 70, 90, 65
63, 61, 73, 58
75, 80, 72, 61
64, 69, 51, 71
60, 62, 55, 60
78, 62, 61, 66
76, 59, 57, 74
82, 73, 71, 59
70, 65, 82, 80
88, 71, 79, 62
96, 87, 61, 66
74, 68, 65, 79
72, 64, 53, 83
67, 77, 77, 70
70, 63, 63, 71
66, 65, 71, 72
82, 70, 73, 55
78, 64, 54, 80
64, 68, 79, 63
62, 68, 74, 70
72, 77, 70, 80
62, 77, 61, 74
85, 72, 74, 76
73, 57, 77, 86
72, 74, 65, 82
60, 77, 54, 67
59, 59, 73, 81
78, 70, 66, 71
61, 76, 72, 68
69, 75, 64, 86
61, 66, 65, 71
75, 65, 72, 86
76, 63, 81, 90
72, 50, 67, 77
60, 88, 82, 61
68, 71, 70, 83
67, 66, 65, 68
83, 73, 67, 74
75, 71, 74, 73
70, 59, 69, 62
61, 82, 63, 74
81, 61, 50, 69
76, 80, 65, 80
64, 75, 61, 82
71, 60, 61, 58
62, 62, 74, 60
70, 68, 80, 68
78, 64, 77, 61
68, 76, 63, 69
74, 53, 66, 75
56, 73, 66, 64
61, 84, 67, 68
79, 65, 56, 71
66, 61, 68, 53
54, 69, 79, 77
54, 75, 64, 72
69, 65, 69, 67
48, 69, 70, 63
68, 63, 70, 66
64, 49, 79, 51
67, 65, 57, 70
65, 71, 56, 79
59, 61, 67, 63
59, 59, 78, 74
65, 56, 82, 73
62, 59, 62, 64
61, 79, 68, 57
59, 63, 57, 58
66, 51, 61, 78
44, 58, 86, 69
67, 79, 70, 68
64, 68, 72, 72
49, 59, 65, 80
71, 75, 78, 62
62, 68, 83, 62
69, 76, 59, 76
60, 58, 54, 70
81, 61, 55, 78
66, 64, 50, 68
63, 54, 58, 56
58, 71, 67, 57
64, 66, 65, 88
77, 52, 61, 59
57, 67, 60, 76
73, 74, 66, 63
61, 64, 75, 79
75, 67, 50, 64
54, 69, 78, 68
62, 72, 83, 70
68, 74, 63, 64
63, 63, 73, 68
79, 76, 61, 73
62, 67, 55, 63
59, 68, 69, 70
82, 70, 64, 57
73, 62, 60, 72
65, 73, 74, 69
65, 65, 79, 57
71, 60, 56, 71
78, 58, 66, 65
68, 62, 45, 65
65, 77, 61, 61
72, 65, 83, 60
74, 73, 65, 60
71, 68, 70, 51
68, 54, 74, 82
58, 72, 69, 58
46, 62, 70, 69
65, 56, 71, 59
52, 69, 65, 53
67, 64, 78, 64
80, 79, 67, 61
72, 70, 57, 63
55, 79, 80, 60
65, 65, 60, 62
65, 77, 59, 63
61, 68, 67, 78
69, 69, 64, 68
75, 74, 61, 48
84, 72, 61, 66
67, 64, 74, 76
61, 62, 67, 73
55, 71, 69, 81
81, 58, 75, 57
60, 59, 65, 53
65, 60, 66, 55
70, 71, 69, 75
66, 70, 71, 72
67, 68, 68, 74
74, 51, 56, 67
56, 64, 72, 55
59, 57, 64, 59
63, 65, 59, 62
67, 56, 70, 61
53, 69, 73, 74
69, 72, 53, 62
63, 53, 51, 70
55, 61, 74, 69
67, 76, 54, 64
74, 65, 62, 72
65, 50, 64, 56
68, 57, 66, 70
50, 57, 67, 70
70, 72, 71, 69
70, 64, 49, 70
53, 69, 61, 52
70, 66, 73, 70
66, 68, 59, 78
66, 68, 61, 53
60, 57, 56, 76
55, 48, 51, 67
85, 63, 59, 74
75, 62, 67, 76
60, 71, 69, 71
63, 79, 64, 68
56, 66, 54, 54
69, 70, 77, 57
67, 70, 56, 70
73, 78, 75, 74
54, 65, 74, 45
66, 73, 49, 67
71, 62, 60, 58
60, 65, 70, 54
60, 56, 66, 63
53, 54, 63, 65
58, 67, 53, 61
59, 64, 47, 67
69, 70, 63, 69
70, 70, 57, 73
53, 74, 59, 59
56, 78, 57, 73
64, 69, 61, 50
91, 63, 62, 59
66, 73, 70, 63
77, 71, 74, 72
79, 75, 63, 51
76, 63, 50, 66
76, 54, 81, 67
69, 85, 62, 58
64, 68, 59, 60
61, 64, 67, 70
61, 52, 55, 63
77, 63, 64, 59
66, 74, 72, 67
60, 57, 80, 71
81, 78, 62, 76
64, 72, 55, 83
69, 67, 50, 58
60, 53, 68, 52
69, 64, 65, 85
67, 65, 56, 69
71, 79, 67, 76
82, 70, 77, 79
70, 70, 75, 67
73, 68, 76, 68
68, 64, 55, 58
70, 73, 61, 78
68, 59, 62, 64
59, 75, 81, 69
68, 52, 84, 74
61, 70, 69, 62
63, 75, 65, 62
72, 80, 69, 72
58, 76, 64, 55
63, 72, 75, 79
62, 82, 67, 70
56, 65, 89, 71
54, 69, 80, 53
65, 63, 66, 74
67, 82, 61, 68
64, 81, 66, 68
67, 75, 57, 60
65, 68, 71, 77
65, 63, 68, 66
75, 72, 75, 71
65, 73, 61, 65
72, 81, 79, 64
69, 65, 75, 78
66, 68, 61, 78
76, 69, 89, 76
64, 65, 79, 67
81, 69, 69, 63
68, 60, 51, 60
68, 68, 72, 67
65, 83, 57, 72
67, 75, 59, 79
62, 70, 74, 68
76, 78, 88, 85
91, 55, 62, 70
60, 71, 87, 71
73, 71, 68, 56
77, 76, 54, 61
66, 72, 74, 75
88, 84, 62, 64
50, 79, 79, 59
83, 63, 89, 85
76, 56, 63, 61
68, 79, 66, 59
71, 72, 85, 74
67, 65, 60, 73
65, 55, 62, 64
73, 58, 70, 65
60, 70, 63, 66
61, 88, 77, 81
66, 73, 81, 63
78, 69, 72, 68
69, 69, 71, 55
72, 71, 70, 73
71, 73, 64, 68
91, 83, 67, 64
67, 65, 77, 70
60, 64, 75, 59
69, 82, 88, 61
64, 74, 64, 70
69, 71, 80, 71
57, 63, 81, 68
81, 83, 75, 78
59, 85, 74, 64
73, 84, 61, 64
80, 82, 66, 79
65, 71, 75, 69
65, 77, 72, 85
77, 57, 77, 58
80, 90, 75, 78
85, 87, 75, 87
80, 87, 83, 80
91, 73, 83, 68
71, 68, 84, 72
112, 68, 61, 62
66, 67, 79, 78
77, 69, 80, 66
86, 72, 59, 76
89, 72, 67, 66
91, 71, 82, 74
74, 88, 80, 64
79, 84, 77, 73
90, 67, 77, 71
61, 69, 71, 61
90, 61, 74, 73
89, 55, 71, 79
87, 76, 66, 79
83, 72, 65, 79
81, 76, 62, 80
81, 67, 82, 80
73, 76, 75, 91
68, 71, 60, 82
78, 78, 77, 65
87, 88, 81, 97
77, 72, 68, 79
72, 63, 70, 68
68, 77, 66, 62
63, 63, 75, 64
68, 62, 60, 68
69, 59, 64, 75
88, 81, 70, 69
72, 46, 88, 74
60, 63, 61, 63
76, 95, 71, 72
70, 79, 71, 80
82, 75, 78, 74
74, 81, 80, 67
79, 80, 83, 76
61, 83, 86, 76
71, 67, 71, 74
76, 81, 72, 70
67, 81, 83, 83
89, 69, 86, 68
73, 78, 90, 90
75, 76, 89, 77
77, 87, 71, 72
99, 60, 70, 94
84, 73, 68, 78
72, 67, 76, 90
72, 92, 53, 63
104, 68, 62, 65
92, 73, 81, 71
87, 89, 80, 71
75, 81, 68, 91
72, 67, 78, 64
83, 84, 90, 64
73, 65, 78, 63
80, 71, 94, 70
91, 88, 61, 89
71, 64, 84, 83
83, 69, 76, 79
89, 76, 77, 85
75, 76, 79, 66
79, 85, 61, 63
71, 70, 73, 86
77, 68, 74, 84
83, 72, 92, 68
103, 73, 66, 81
68, 93, 70, 95
74, 69, 80, 75
82, 69, 68, 78
91, 69, 54, 73
73, 85, 76, 83
91, 66, 89, 91
77, 67, 65, 88
90, 79, 79, 78
58, 70, 78, 75
71, 80, 67, 86
79, 85, 66, 84
68, 73, 72, 88
79, 79, 93, 64
70, 79, 82, 65
71, 76, 75, 60
90, 80, 73, 77
63, 69, 81, 74
80, 69, 92, 87
97, 75, 91, 91
74, 94, 70, 98
66, 87, 76, 87
76, 76, 91, 71
76, 81, 67, 90
75, 88, 75, 81
71, 86, 81, 72
79, 62, 73, 80
75, 74, 74, 88
75, 78, 91, 73
75, 70, 77, 72
94, 77, 76, 69
71, 78, 84, 65
82, 74, 75, 68
75, 77, 98, 62
68, 79, 90, 77
74, 61, 78, 95
77, 81, 88, 79
84, 78, 67, 79
74
*END

*EOF
